# step = 12000, time = 0.12, G_eff = 5000
# x  rho  phase  re  im  V
0.000976562  0.0213601  2.50843  -0.117821  0.0864777  0.03272
0.00292969  0.0214136  2.50719  -0.117862  0.0867311  0.0327162
0.00488281  0.0215209  2.50474  -0.117943  0.0872373  0.0327088
0.00683594  0.0216825  2.50109  -0.118064  0.0879958  0.0326976
0.00878906  0.0218992  2.49627  -0.118225  0.0890053  0.0326826
0.0107422  0.0221722  2.49032  -0.118425  0.0902645  0.032664
0.0126953  0.0225027  2.48329  -0.118662  0.0917713  0.0326416
0.0146484  0.0228923  2.47524  -0.118935  0.0935237  0.0326155
0.0166016  0.0233428  2.46622  -0.119243  0.095519  0.0325856
0.0185547  0.0238563  2.4563  -0.119584  0.0977542  0.032552
0.0205078  0.0244348  2.44556  -0.119956  0.100226  0.0325147
0.0224609  0.0250808  2.43408  -0.120358  0.102931  0.0324737
0.0244141  0.0257966  2.42193  -0.120786  0.105865  0.032429
0.0263672  0.0265849  2.40919  -0.121238  0.109024  0.0323805
0.0283203  0.0274484  2.39594  -0.121713  0.112402  0.0323283
0.0302734  0.0283897  2.38226  -0.122207  0.115996  0.0322725
0.0322266  0.0294116  2.36823  -0.122718  0.119799  0.0322129
0.0341797  0.0305169  2.35391  -0.123243  0.123807  0.0321496
0.0361328  0.0317082  2.33938  -0.123778  0.128013  0.0320826
0.0380859  0.0329883  2.3247  -0.124321  0.13241  0.0320119
0.0400391  0.0343596  2.30993  -0.12487  0.136993  0.0319375
0.0419922  0.0358246  2.29513  -0.125419  0.141755  0.0318595
0.0439453  0.0373854  2.28034  -0.125967  0.146689  0.0317777
0.0458984  0.0390443  2.26562  -0.126511  0.151787  0.0316923
0.0478516  0.040803  2.25099  -0.127046  0.157043  0.0316033
0.0498047  0.0426631  2.23651  -0.127569  0.162447  0.0315105
0.0517578  0.0446259  2.22219  -0.128078  0.167993  0.0314141
0.0537109  0.0466925  2.20806  -0.12857  0.173673  0.0313141
0.0556641  0.0488636  2.19414  -0.129039  0.179478  0.0312104
0.0576172  0.0511395  2.18045  -0.129484  0.1854  0.0311032
0.0595703  0.0535202  2.167  -0.129902  0.191431  0.0309922
0.0615234  0.0560054  2.15381  -0.130288  0.197561  0.0308777
0.0634766  0.0585944  2.14087  -0.13064  0.203783  0.0307596
0.0654297  0.0612858  2.1282  -0.130955  0.210087  0.0306379
0.0673828  0.0640783  2.11579  -0.131229  0.216465  0.0305126
0.0693359  0.0669698  2.10364  -0.131459  0.222909  0.0303837
0.0712891  0.0699579  2.09176  -0.131643  0.229408  0.0302513
0.0732422  0.0730398  2.08013  -0.131777  0.235955  0.0301153
0.0751953  0.0762124  2.06875  -0.131858  0.242541  0.0299758
0.0771484  0.0794721  2.05762  -0.131884  0.249156  0.0298328
0.0791016  0.0828149  2.04673  -0.131851  0.255793  0.0296862
0.0810547  0.0862365  2.03607  -0.131757  0.262444  0.0295362
0.0830078  0.0897322  2.02563  -0.131599  0.269098  0.0293826
0.0849609  0.093297  2.01541  -0.131374  0.27575  0.0292256
0.0869141  0.0969256  2.00538  -0.13108  0.282389  0.0290652
0.0888672  0.100612  1.99554  -0.130713  0.28901  0.0289012
0.0908203  0.104352  1.98589  -0.130272  0.295603  0.0287339
0.0927734  0.108137  1.97641  -0.129754  0.302161  0.0285631
0.0947266  0.111963  1.96708  -0.129157  0.308678  0.028389
0.0966797  0.115823  1.9579  -0.128477  0.315145  0.0282114
0.0986328  0.11971  1.94886  -0.127713  0.321558  0.0280305
0.100586  0.123618  1.93994  -0.126863  0.327909  0.0278462
0.102539  0.127541  1.93114  -0.125923  0.334191  0.0276586
0.104492  0.131471  1.92245  -0.124893  0.340401  0.0274677
0.106445  0.135402  1.91384  -0.123769  0.346531  0.0272734
0.108398  0.139328  1.90532  -0.12255  0.352576  0.0270758
0.110352  0.143243  1.89687  -0.121234  0.358533  0.026875
0.112305  0.147141  1.88847  -0.119818  0.364396  0.0266709
0.114258  0.151015  1.88013  -0.118302  0.370161  0.0264635
0.116211  0.15486  1.87183  -0.116682  0.375826  0.0262529
0.118164  0.15867  1.86356  -0.114958  0.381385  0.0260391
0.120117  0.162441  1.85531  -0.113128  0.386837  0.025822
0.12207  0.166167  1.84707  -0.11119  0.392178  0.0256018
0.124023  0.169844  1.83883  -0.109143  0.397407  0.0253784
0.125977  0.173469  1.83058  -0.106985  0.402521  0.0251518
0.12793  0.177037  1.82231  -0.104716  0.407519  0.024922
0.129883  0.180545  1.81402  -0.102333  0.412399  0.0246892
0.131836  0.183991  1.8057  -0.0998366  0.417162  0.0244532
0.133789  0.187372  1.79734  -0.0972249  0.421805  0.0242141
0.135742  0.190687  1.78892  -0.0944973  0.42633  0.0239718
0.137695  0.193933  1.78045  -0.091653  0.430735  0.0237265
0.139648  0.19711  1.77192  -0.0886914  0.435022  0.0234781
0.141602  0.200218  1.76331  -0.085612  0.439191  0.0232267
0.143555  0.203257  1.75463  -0.0824144  0.443244  0.0229722
0.145508  0.206227  1.74587  -0.0790984  0.44718  0.0227147
0.147461  0.209129  1.73702  -0.0756638  0.451003  0.0224541
0.149414  0.211964  1.72807  -0.0721105  0.454714  0.0221905
0.151367  0.214736  1.71903  -0.0684387  0.458314  0.0219239
0.15332  0.217445  1.70988  -0.0646487  0.461806  0.0216544
0.155273  0.220094  1.70063  -0.0607407  0.465193  0.0213818
0.157227  0.222687  1.69127  -0.0567152  0.468477  0.0211062
0.15918  0.225227  1.6818  -0.0525728  0.47166  0.0208277
0.161133  0.227719  1.67222  -0.0483144  0.474747  0.0205463
0.163086  0.230165  1.66251  -0.0439406  0.477739  0.0202619
0.165039  0.232571  1.6527  -0.0394525  0.48064  0.0199745
0.166992  0.234941  1.64276  -0.0348511  0.483453  0.0196842
0.168945  0.237281  1.63271  -0.0301377  0.486182  0.019391
0.170898  0.239596  1.62253  -0.0253135  0.48883  0.0190949
0.172852  0.24189  1.61225  -0.0203799  0.491401  0.0187959
0.174805  0.24417  1.60184  -0.0153384  0.493898  0.018494
0.176758  0.246442  1.59133  -0.0101906  0.496325  0.0181892
0.178711  0.248712  1.5807  -0.0049382  0.498686  0.0178816
0.180664  0.250985  1.56996  0.00041704  0.500983  0.017571
0.182617  0.253267  1.55913  0.00587329  0.503222  0.0172577
0.18457  0.255565  1.54819  0.0114286  0.505405  0.0169414
0.186523  0.257885  1.53715  0.0170811  0.507537  0.0166224
0.188477  0.260233  1.52603  0.0228286  0.50962  0.0163005
0.19043  0.262616  1.51482  0.028669  0.511658  0.0159757
0.192383  0.265038  1.50354  0.0346002  0.513655  0.0156482
0.194336  0.267508  1.49218  0.0406201  0.515614  0.0153178
0.196289  0.27003  1.48075  0.0467263  0.517539  0.0149847
0.198242  0.27261  1.46927  0.0529166  0.519432  0.0146488
0.200195  0.275255  1.45774  0.0591888  0.521298  0.0143101
0.202148  0.277969  1.44616  0.0655404  0.523138  0.0139686
0.204102  0.28076  1.43455  0.0719693  0.524957  0.0136244
0.206055  0.283631  1.42291  0.0784731  0.526757  0.0132774
0.208008  0.286589  1.41125  0.0850494  0.528541  0.0129277
0.209961  0.289639  1.39958  0.0916959  0.530312  0.0125753
0.211914  0.292785  1.38791  0.0984104  0.532072  0.0122202
0.213867  0.296033  1.37624  0.10519  0.533824  0.0118624
0.21582  0.299388  1.36458  0.112034  0.535571  0.0115018
0.217773  0.302852  1.35295  0.118939  0.537314  0.0111387
0.219727  0.306432  1.34135  0.125902  0.539056  0.0107728
0.22168  0.310132  1.32978  0.132923  0.540799  0.0104043
0.223633  0.313954  1.31827  0.139998  0.542545  0.0100332
0.225586  0.317904  1.3068  0.147125  0.544296  0.00965946
0.227539  0.321985  1.2954  0.154303  0.546054  0.00928312
0.229492  0.3262  1.28406  0.16153  0.547821  0.00890419
0.231445  0.330552  1.2728  0.168804  0.549598  0.00852269
0.233398  0.335046  1.26162  0.176122  0.551387  0.00813863
0.235352  0.339684  1.25053  0.183484  0.553189  0.00775204
0.237305  0.344469  1.23953  0.190887  0.555006  0.00736293
0.239258  0.349404  1.22863  0.19833  0.556838  0.00697132
0.241211  0.354491  1.21784  0.205811  0.558689  0.00657723
0.243164  0.359734  1.20715  0.213329  0.560557  0.00618068
0.245117  0.365135  1.19658  0.220883  0.562446  0.00578168
0.24707  0.370696  1.18613  0.228472  0.564355  0.00538026
0.249023  0.37642  1.17579  0.236093  0.566286  0.00497644
0.250977  0.382309  1.16558  0.243748  0.568239  0.00457024
0.25293  0.388365  1.1555  0.251433  0.570216  0.00416168
0.254883  0.394592  1.14554  0.25915  0.572218  0.00375079
0.256836  0.400991  1.13572  0.266896  0.574245  0.00333759
0.258789  0.407565  1.12603  0.274673  0.576298  0.00292211
0.260742  0.414316  1.11647  0.282478  0.578379  0.00250436
0.262695  0.421246  1.10705  0.290313  0.580486  0.00208439
0.264648  0.428359  1.09777  0.298177  0.582623  0.0016622
0.266602  0.435656  1.08862  0.30607  0.584789  0.00123783
0.268555  0.443142  1.0796  0.313992  0.586984  0.000811314
0.270508  0.450818  1.07072  0.321945  0.589211  0.00038267
0.272461  0.458687  1.06198  0.329928  0.591469  -4.80696e-05
0.274414  0.466754  1.05336  0.337942  0.593759  -0.000480874
0.276367  0.475021  1.04488  0.345989  0.596081  -0.000915712
0.27832  0.483493  1.03653  0.35407  0.598438  -0.00135255
0.280273  0.492173  1.02831  0.362185  0.600829  -0.00179137
0.282227  0.501065  1.02022  0.370337  0.603254  -0.00223211
0.28418  0.510175  1.01225  0.378527  0.605716  -0.00267477
0.286133  0.519506  1.0044  0.386758  0.608214  -0.00311929
0.288086  0.529065  0.996675  0.395032  0.61075  -0.00356564
0.290039  0.538857  0.989064  0.40335  0.613323  -0.00401379
0.291992  0.548888  0.981566  0.411717  0.615936  -0.0044637
0.293945  0.559164  0.974178  0.420135  0.618587  -0.00491533
0.295898  0.569692  0.966897  0.428606  0.62128  -0.00536864
0.297852  0.58048  0.959719  0.437136  0.624013  -0.0058236
0.299805  0.591536  0.952642  0.445726  0.626789  -0.00628015
0.301758  0.602867  0.94566  0.454382  0.629607  -0.00673827
0.303711  0.614484  0.938771  0.463107  0.632468  -0.0071979
0.305664  0.626394  0.93197  0.471905  0.635374  -0.007659
0.307617  0.63861  0.925254  0.480782  0.638324  -0.00812152
0.30957  0.65114  0.918618  0.489743  0.641321  -0.00858542
0.311523  0.663997  0.912058  0.498792  0.644363  -0.00905066
0.313477  0.677192  0.905571  0.507934  0.647453  -0.00951718
0.31543  0.690738  0.899152  0.517176  0.65059  -0.00998492
0.317383  0.704648  0.892797  0.526523  0.653775  -0.0104539
0.319336  0.718936  0.886502  0.535981  0.657009  -0.0109239
0.321289  0.733617  0.880262  0.545556  0.660292  -0.011395
0.323242  0.748706  0.874074  0.555255  0.663625  -0.0118672
0.325195  0.764218  0.867934  0.565084  0.667007  -0.0123403
0.327148  0.780172  0.861838  0.575049  0.67044  -0.0128143
0.329102  0.796583  0.855782  0.585158  0.673924  -0.0132891
0.331055  0.81347  0.849763  0.595417  0.677458  -0.0137648
0.333008  0.830853  0.843776  0.605833  0.681043  -0.0142411
0.334961  0.848749  0.837818  0.616413  0.684678  -0.0147181
0.336914  0.86718  0.831886  0.627164  0.688364  -0.0151956
0.338867  0.886166  0.825977  0.638093  0.692101  -0.0156737
0.34082  0.905729  0.820088  0.649207  0.695887  -0.0161522
0.342773  0.92589  0.814216  0.660513  0.699723  -0.0166311
0.344727  0.946672  0.808358  0.672018  0.703608  -0.0171102
0.34668  0.968098  0.802513  0.683728  0.707541  -0.0175895
0.348633  0.990192  0.796678  0.695649  0.711522  -0.018069
0.350586  1.01298  0.790851  0.707789  0.71555  -0.0185485
0.352539  1.03648  0.785031  0.720152  0.719623  -0.019028
0.354492  1.06072  0.779216  0.732745  0.723742  -0.0195073
0.356445  1.08572  0.773407  0.745574  0.727903  -0.0199864
0.358398  1.11152  0.7676  0.758642  0.732107  -0.0204652
0.360352  1.13813  0.761797  0.771955  0.736352  -0.0209435
0.362305  1.16558  0.755998  0.785518  0.740635  -0.0214213
0.364258  1.19389  0.750201  0.799333  0.744956  -0.0218985
0.366211  1.2231  0.744408  0.813404  0.749313  -0.022375
0.368164  1.25321  0.73862  0.827734  0.753703  -0.0228506
0.370117  1.28426  0.732837  0.842324  0.758126  -0.0233252
0.37207  1.31628  0.727061  0.857176  0.762578  -0.0237988
0.374023  1.34927  0.721294  0.872291  0.767057  -0.0242711
0.375977  1.38326  0.715536  0.887668  0.771562  -0.0247421
0.37793  1.41828  0.709791  0.903307  0.77609  -0.0252117
0.379883  1.45434  0.70406  0.919206  0.780638  -0.0256797
0.381836  1.49145  0.698346  0.935364  0.785205  -0.0261459
0.383789  1.52964  0.692652  0.951775  0.789787  -0.0266103
0.385742  1.56891  0.686981  0.968437  0.794382  -0.0270726
0.387695  1.60928  0.681335  0.985344  0.798987  -0.0275328
0.389648  1.65076  0.675718  1.00249  0.8036  -0.0279906
0.391602  1.69335  0.670134  1.01987  0.808218  -0.028446
0.393555  1.73705  0.664586  1.03747  0.812838  -0.0288987
0.395508  1.78187  0.659077  1.05529  0.817457  -0.0293486
0.397461  1.82781  0.653612  1.07332  0.822073  -0.0297956
0.399414  1.87485  0.648193  1.09153  0.826682  -0.0302394
0.401367  1.92299  0.642825  1.10994  0.831281  -0.0306798
0.40332  1.97221  0.637512  1.12851  0.835869  -0.0311167
0.405273  2.0225  0.632257  1.14724  0.840441  -0.03155
0.407227  2.07382  0.627064  1.16611  0.844995  -0.0319793
0.40918  2.12617  0.621937  1.1851  0.849527  -0.0324045
0.411133  2.1795  0.61688  1.20421  0.854036  -0.0328254
0.413086  2.23377  0.611895  1.22341  0.858517  -0.0332419
0.415039  2.28896  0.606987  1.24268  0.862968  -0.0336536
0.416992  2.345  0.602159  1.262  0.867386  -0.0340604
0.418945  2.40185  0.597415  1.28136  0.871768  -0.0344621
0.420898  2.45945  0.592757  1.30072  0.87611  -0.0348584
0.422852  2.51774  0.588188  1.32008  0.88041  -0.0352492
0.424805  2.57666  0.583712  1.33941  0.884664  -0.0356341
0.426758  2.63611  0.579331  1.35869  0.88887  -0.0360131
0.428711  2.69604  0.575048  1.37788  0.893023  -0.0363858
0.430664  2.75635  0.570866  1.39697  0.897121  -0.0367521
0.432617  2.81696  0.566786  1.41593  0.901162  -0.0371116
0.43457  2.87777  0.562811  1.43474  0.90514  -0.0374643
0.436523  2.93868  0.558943  1.45338  0.909054  -0.0378097
0.438477  2.99959  0.555183  1.4718  0.912899  -0.0381478
0.44043  3.06038  0.551534  1.49  0.916673  -0.0384782
0.442383  3.12096  0.547996  1.50794  0.920372  -0.0388008
0.444336  3.1812  0.544572  1.52559  0.923993  -0.0391152
0.446289  3.24097  0.541262  1.54294  0.927531  -0.0394214
0.448242  3.30017  0.538067  1.55995  0.930985  -0.039719
0.450195  3.35866  0.534989  1.57659  0.93435  -0.0400078
0.452148  3.41631  0.532027  1.59285  0.937622  -0.0402877
0.454102  3.473  0.529184  1.6087  0.940799  -0.0405583
0.456055  3.5286  0.526459  1.6241  0.943876  -0.0408194
0.458008  3.58296  0.523852  1.63904  0.946851  -0.041071
0.459961  3.63597  0.521365  1.65348  0.94972  -0.0413126
0.461914  3.68749  0.518997  1.66742  0.952479  -0.0415442
0.463867  3.73739  0.516748  1.68081  0.955124  -0.0417656
0.46582  3.78554  0.514619  1.69365  0.957654  -0.0419765
0.467773  3.83182  0.51261  1.7059  0.960064  -0.0421768
0.469727  3.87609  0.51072  1.71755  0.96235  -0.0423662
0.47168  3.91825  0.50895  1.72858  0.964511  -0.0425447
0.473633  3.95818  0.507299  1.73896  0.966543  -0.0427121
0.475586  3.99576  0.505767  1.74868  0.968443  -0.0428682
0.477539  4.03089  0.504354  1.75772  0.970208  -0.0430128
0.479492  4.06347  0.50306  1.76607  0.971836  -0.0431459
0.481445  4.0934  0.501884  1.77371  0.973324  -0.0432673
0.483398  4.12059  0.500827  1.78062  0.97467  -0.0433768
0.485352  4.14498  0.499888  1.7868  0.975872  -0.0434745
0.487305  4.16648  0.499066  1.79223  0.976928  -0.0435602
0.489258  4.18503  0.498363  1.7969  0.977836  -0.0436338
0.491211  4.20057  0.497777  1.80081  0.978596  -0.0436952
0.493164  4.21306  0.497308  1.80395  0.979205  -0.0437444
0.495117  4.22247  0.496957  1.8063  0.979662  -0.0437814
0.49707  4.22875  0.496723  1.80788  0.979968  -0.043806
0.499023  4.2319  0.496606  1.80866  0.98012  -0.0438184
0.500977  4.2319  0.496606  1.80866  0.98012  -0.0438184
0.50293  4.22875  0.496723  1.80788  0.979968  -0.043806
0.504883  4.22247  0.496957  1.8063  0.979662  -0.0437814
0.506836  4.21306  0.497308  1.80395  0.979205  -0.0437444
0.508789  4.20057  0.497777  1.80081  0.978596  -0.0436952
0.510742  4.18503  0.498363  1.7969  0.977836  -0.0436338
0.512695  4.16648  0.499066  1.79223  0.976928  -0.0435602
0.514648  4.14498  0.499888  1.7868  0.975872  -0.0434745
0.516602  4.12059  0.500827  1.78062  0.97467  -0.0433768
0.518555  4.0934  0.501884  1.77371  0.973324  -0.0432673
0.520508  4.06347  0.50306  1.76607  0.971836  -0.0431459
0.522461  4.03089  0.504354  1.75772  0.970208  -0.0430128
0.524414  3.99576  0.505767  1.74868  0.968443  -0.0428682
0.526367  3.95818  0.507299  1.73896  0.966543  -0.0427121
0.52832  3.91825  0.50895  1.72858  0.964511  -0.0425447
0.530273  3.87609  0.51072  1.71755  0.96235  -0.0423662
0.532227  3.83182  0.51261  1.7059  0.960064  -0.0421768
0.53418  3.78554  0.514619  1.69365  0.957654  -0.0419765
0.536133  3.73739  0.516748  1.68081  0.955124  -0.0417656
0.538086  3.68749  0.518997  1.66742  0.952479  -0.0415442
0.540039  3.63597  0.521365  1.65348  0.94972  -0.0413126
0.541992  3.58296  0.523852  1.63904  0.946851  -0.041071
0.543945  3.5286  0.526459  1.6241  0.943876  -0.0408194
0.545898  3.473  0.529184  1.6087  0.940799  -0.0405583
0.547852  3.41631  0.532027  1.59285  0.937622  -0.0402877
0.549805  3.35866  0.534989  1.57659  0.93435  -0.0400078
0.551758  3.30017  0.538067  1.55995  0.930985  -0.039719
0.553711  3.24097  0.541262  1.54294  0.927531  -0.0394214
0.555664  3.1812  0.544572  1.52559  0.923993  -0.0391152
0.557617  3.12096  0.547996  1.50794  0.920372  -0.0388008
0.55957  3.06038  0.551534  1.49  0.916673  -0.0384782
0.561523  2.99959  0.555183  1.4718  0.912899  -0.0381478
0.563477  2.93868  0.558943  1.45338  0.909054  -0.0378097
0.56543  2.87777  0.562811  1.43474  0.90514  -0.0374643
0.567383  2.81696  0.566786  1.41593  0.901162  -0.0371116
0.569336  2.75635  0.570866  1.39697  0.897121  -0.0367521
0.571289  2.69604  0.575048  1.37788  0.893023  -0.0363858
0.573242  2.63611  0.579331  1.35869  0.88887  -0.0360131
0.575195  2.57666  0.583712  1.33941  0.884664  -0.0356341
0.577148  2.51774  0.588188  1.32008  0.88041  -0.0352492
0.579102  2.45945  0.592757  1.30072  0.87611  -0.0348584
0.581055  2.40185  0.597415  1.28136  0.871768  -0.0344621
0.583008  2.345  0.602159  1.262  0.867386  -0.0340604
0.584961  2.28896  0.606987  1.24268  0.862968  -0.0336536
0.586914  2.23377  0.611895  1.22341  0.858517  -0.0332419
0.588867  2.1795  0.61688  1.20421  0.854036  -0.0328254
0.59082  2.12617  0.621937  1.1851  0.849527  -0.0324045
0.592773  2.07382  0.627064  1.16611  0.844995  -0.0319793
0.594727  2.0225  0.632257  1.14724  0.840441  -0.03155
0.59668  1.97221  0.637512  1.12851  0.835869  -0.0311167
0.598633  1.92299  0.642825  1.10994  0.831281  -0.0306798
0.600586  1.87485  0.648193  1.09153  0.826682  -0.0302394
0.602539  1.82781  0.653612  1.07332  0.822073  -0.0297956
0.604492  1.78187  0.659077  1.05529  0.817457  -0.0293486
0.606445  1.73705  0.664586  1.03747  0.812838  -0.0288987
0.608398  1.69335  0.670134  1.01987  0.808218  -0.028446
0.610352  1.65076  0.675718  1.00249  0.8036  -0.0279906
0.612305  1.60928  0.681335  0.985344  0.798987  -0.0275328
0.614258  1.56891  0.686981  0.968437  0.794382  -0.0270726
0.616211  1.52964  0.692652  0.951775  0.789787  -0.0266103
0.618164  1.49145  0.698346  0.935364  0.785205  -0.0261459
0.620117  1.45434  0.70406  0.919206  0.780638  -0.0256797
0.62207  1.41828  0.709791  0.903307  0.77609  -0.0252117
0.624023  1.38326  0.715536  0.887668  0.771562  -0.0247421
0.625977  1.34927  0.721294  0.872291  0.767057  -0.0242711
0.62793  1.31628  0.727061  0.857176  0.762578  -0.0237988
0.629883  1.28426  0.732837  0.842324  0.758126  -0.0233252
0.631836  1.25321  0.73862  0.827734  0.753703  -0.0228506
0.633789  1.2231  0.744408  0.813404  0.749313  -0.022375
0.635742  1.19389  0.750201  0.799333  0.744956  -0.0218985
0.637695  1.16558  0.755998  0.785518  0.740635  -0.0214213
0.639648  1.13813  0.761797  0.771955  0.736352  -0.0209435
0.641602  1.11152  0.7676  0.758642  0.732107  -0.0204652
0.643555  1.08572  0.773407  0.745574  0.727903  -0.0199864
0.645508  1.06072  0.779216  0.732745  0.723742  -0.0195073
0.647461  1.03648  0.785031  0.720152  0.719623  -0.019028
0.649414  1.01298  0.790851  0.707789  0.71555  -0.0185485
0.651367  0.990192  0.796678  0.695649  0.711522  -0.018069
