# step = 2000, time = 0.02, G_eff = 5000
# x  rho  phase  re  im  V
0.000976562  0.186037  2.42888  -0.326332  0.282036  0.0326818
0.00292969  0.185954  2.42897  -0.326286  0.281942  0.0326787
0.00488281  0.185787  2.42916  -0.326193  0.281753  0.0326725
0.00683594  0.185537  2.42945  -0.326055  0.281471  0.0326632
0.00878906  0.185206  2.42983  -0.32587  0.281095  0.0326508
0.0107422  0.184793  2.43031  -0.32564  0.280627  0.0326352
0.0126953  0.1843  2.43088  -0.325365  0.280066  0.0326166
0.0146484  0.183728  2.43154  -0.325046  0.279415  0.0325948
0.0166016  0.183079  2.4323  -0.324683  0.278674  0.03257
0.0185547  0.182354  2.43316  -0.324277  0.277845  0.032542
0.0205078  0.181555  2.43411  -0.32383  0.276929  0.0325109
0.0224609  0.180685  2.43515  -0.32334  0.275928  0.0324767
0.0244141  0.179746  2.43628  -0.322811  0.274843  0.0324393
0.0263672  0.17874  2.43751  -0.322243  0.273677  0.0323988
0.0283203  0.177669  2.43883  -0.321636  0.272432  0.0323552
0.0302734  0.176537  2.44024  -0.320993  0.271111  0.0323085
0.0322266  0.175347  2.44174  -0.320314  0.269714  0.0322586
0.0341797  0.174101  2.44333  -0.319601  0.268247  0.0322056
0.0361328  0.172803  2.44501  -0.318855  0.26671  0.0321494
0.0380859  0.171456  2.44678  -0.318078  0.265108  0.03209
0.0400391  0.170063  2.44862  -0.317271  0.263443  0.0320275
0.0419922  0.168628  2.45055  -0.316435  0.261718  0.0319619
0.0439453  0.167154  2.45256  -0.315572  0.259938  0.031893
0.0458984  0.165645  2.45465  -0.314684  0.258105  0.031821
0.0478516  0.164104  2.45681  -0.313772  0.256224  0.0317458
0.0498047  0.162535  2.45905  -0.312837  0.254298  0.0316675
0.0517578  0.160941  2.46135  -0.311881  0.252332  0.0315859
0.0537109  0.159327  2.46371  -0.310906  0.250329  0.0315011
0.0556641  0.157695  2.46614  -0.309913  0.248293  0.0314131
0.0576172  0.15605  2.46862  -0.308903  0.246229  0.0313219
0.0595703  0.154394  2.47115  -0.307878  0.244141  0.0312275
0.0615234  0.152731  2.47372  -0.306839  0.242034  0.0311298
0.0634766  0.151064  2.47633  -0.305788  0.239912  0.031029
0.0654297  0.149396  2.47897  -0.304725  0.237779  0.0309249
0.0673828  0.147731  2.48164  -0.303651  0.235641  0.0308175
0.0693359  0.146071  2.48433  -0.302569  0.233501  0.0307069
0.0712891  0.144419  2.48702  -0.301478  0.231365  0.030593
0.0732422  0.142777  2.48972  -0.300379  0.229237  0.0304759
0.0751953  0.141149  2.49241  -0.299274  0.227122  0.0303555
0.0771484  0.139536  2.49509  -0.298162  0.225023  0.0302318
0.0791016  0.137941  2.49774  -0.297045  0.222946  0.0301048
0.0810547  0.136365  2.50036  -0.295923  0.220896  0.0299746
0.0830078  0.134811  2.50293  -0.294796  0.218875  0.029841
0.0849609  0.133279  2.50545  -0.293664  0.21689  0.0297042
0.0869141  0.131772  2.5079  -0.292527  0.214943  0.029564
0.0888672  0.130291  2.51028  -0.291385  0.21304  0.0294206
0.0908203  0.128836  2.51257  -0.290238  0.211183  0.0292738
0.0927734  0.12741  2.51476  -0.289086  0.209377  0.0291237
0.0947266  0.126011  2.51684  -0.287928  0.207626  0.0289703
0.0966797  0.124641  2.5188  -0.286763  0.205933  0.0288135
0.0986328  0.123301  2.52063  -0.285591  0.204301  0.0286534
0.100586  0.121991  2.52231  -0.284411  0.202734  0.0284899
0.102539  0.120711  2.52384  -0.283223  0.201235  0.0283231
0.104492  0.119461  2.5252  -0.282025  0.199807  0.028153
0.106445  0.11824  2.52639  -0.280816  0.198451  0.0279795
0.108398  0.11705  2.52738  -0.279594  0.197172  0.0278026
0.110352  0.115889  2.52818  -0.27836  0.19597  0.0276223
0.112305  0.114757  2.52876  -0.277112  0.194849  0.0274387
0.114258  0.113654  2.52913  -0.275848  0.19381  0.0272517
0.116211  0.11258  2.52926  -0.274567  0.192854  0.0270613
0.118164  0.111534  2.52916  -0.273268  0.191984  0.0268676
0.120117  0.110515  2.52881  -0.27195  0.191201  0.0266704
0.12207  0.109523  2.5282  -0.270612  0.190506  0.0264699
0.124023  0.108558  2.52733  -0.269252  0.189899  0.0262659
0.125977  0.10762  2.52619  -0.26787  0.189382  0.0260586
0.12793  0.106707  2.52477  -0.266463  0.188955  0.0258478
0.129883  0.105819  2.52307  -0.265033  0.188618  0.0256337
0.131836  0.104957  2.52108  -0.263577  0.188373  0.0254161
0.133789  0.10412  2.5188  -0.262095  0.188218  0.0251951
0.135742  0.103307  2.51623  -0.260587  0.188153  0.0249707
0.137695  0.10252  2.51336  -0.259053  0.18818  0.0247429
0.139648  0.101757  2.51019  -0.257492  0.188296  0.0245116
0.141602  0.10102  2.50672  -0.255904  0.188502  0.024277
0.143555  0.100308  2.50294  -0.25429  0.188797  0.0240389
0.145508  0.0996213  2.49887  -0.252651  0.189179  0.0237973
0.147461  0.0989613  2.49451  -0.250987  0.189649  0.0235524
0.149414  0.0983282  2.48985  -0.249299  0.190205  0.023304
0.151367  0.0977229  2.4849  -0.24759  0.190846  0.0230521
0.15332  0.0971462  2.47967  -0.245859  0.191571  0.0227968
0.155273  0.0965993  2.47416  -0.244111  0.192378  0.0225381
0.157227  0.0960832  2.46839  -0.242346  0.193266  0.0222759
0.15918  0.0955994  2.46236  -0.240568  0.194234  0.0220103
0.161133  0.0951491  2.45608  -0.238779  0.195279  0.0217412
0.163086  0.094734  2.44956  -0.236982  0.196401  0.0214687
0.165039  0.0943557  2.44282  -0.235183  0.197598  0.0211927
0.166992  0.0940158  2.43588  -0.233383  0.198867  0.0209132
0.168945  0.0937163  2.42874  -0.231588  0.200208  0.0206303
0.170898  0.0934591  2.42143  -0.229803  0.201618  0.020344
0.172852  0.0932461  2.41397  -0.228032  0.203095  0.0200542
0.174805  0.0930795  2.40638  -0.22628  0.204638  0.0197609
0.176758  0.0929614  2.39867  -0.224554  0.206245  0.0194642
0.178711  0.0928939  2.39088  -0.222859  0.207913  0.019164
0.180664  0.0928794  2.38302  -0.221202  0.209641  0.0188603
0.182617  0.0929201  2.37513  -0.219589  0.211426  0.0185532
0.18457  0.0930183  2.36723  -0.218027  0.213267  0.0182427
0.186523  0.0931765  2.35935  -0.216523  0.215161  0.0179286
0.188477  0.093397  2.35152  -0.215085  0.217107  0.0176111
0.19043  0.0936822  2.34376  -0.213721  0.219102  0.0172902
0.192383  0.0940345  2.33612  -0.212438  0.221144  0.0169658
0.194336  0.0944565  2.32862  -0.211245  0.223231  0.0166379
0.196289  0.0949507  2.32129  -0.210151  0.22536  0.0163066
0.198242  0.0955195  2.31416  -0.209163  0.227531  0.0159718
0.200195  0.0961656  2.30727  -0.208292  0.229739  0.0156336
0.202148  0.0968917  2.30065  -0.207546  0.231984  0.015292
0.204102  0.0977003  2.29433  -0.206934  0.234262  0.0149468
0.206055  0.0985943  2.28834  -0.206466  0.236572  0.0145983
0.208008  0.0995766  2.28272  -0.206151  0.238911  0.0142463
0.209961  0.10065  2.27748  -0.205999  0.241277  0.0138909
0.211914  0.101818  2.27267  -0.20602  0.243668  0.013532
0.213867  0.103084  2.2683  -0.206223  0.24608  0.0131697
0.21582  0.10445  2.2644  -0.206619  0.248513  0.012804
0.217773  0.105922  2.26101  -0.207218  0.250963  0.0124349
0.219727  0.107502  2.25813  -0.208029  0.253428  0.0120624
0.22168  0.109195  2.25579  -0.209062  0.255906  0.0116865
0.223633  0.111005  2.25401  -0.210328  0.258394  0.0113071
0.225586  0.112938  2.2528  -0.211837  0.260889  0.0109244
0.227539  0.114998  2.25218  -0.213598  0.263389  0.0105383
0.229492  0.117192  2.25217  -0.215622  0.265893  0.0101488
0.231445  0.119525  2.25277  -0.217918  0.268396  0.00975597
0.233398  0.122003  2.25398  -0.220496  0.270897  0.00935977
0.235352  0.124635  2.25583  -0.223365  0.273392  0.00896021
0.237305  0.127428  2.25829  -0.226536  0.27588  0.00855732
0.239258  0.130391  2.26139  -0.230016  0.278358  0.0081511
0.241211  0.133532  2.26511  -0.233817  0.280823  0.00774157
0.243164  0.136862  2.26945  -0.237945  0.283273  0.00732873
0.245117  0.14039  2.2744  -0.242411  0.285704  0.0069126
0.24707  0.144129  2.27996  -0.247223  0.288115  0.00649319
0.249023  0.148091  2.2861  -0.252388  0.290502  0.00607051
0.250977  0.152289  2.29283  -0.257915  0.292862  0.00564459
0.25293  0.156736  2.30011  -0.263812  0.295194  0.00521544
0.254883  0.161448  2.30794  -0.270085  0.297493  0.00478307
0.256836  0.166441  2.31629  -0.276741  0.299758  0.0043475
0.258789  0.171731  2.32514  -0.283788  0.301985  0.00390875
0.260742  0.177337  2.33446  -0.291232  0.304172  0.00346685
0.262695  0.183276  2.34424  -0.299077  0.306315  0.00302181
0.264648  0.18957  2.35444  -0.30733  0.308412  0.00257365
0.266602  0.196238  2.36503  -0.315995  0.31046  0.00212241
0.268555  0.203303  2.37599  -0.325076  0.312455  0.0016681
0.270508  0.210786  2.38728  -0.334578  0.314395  0.00121075
0.272461  0.218712  2.39889  -0.344503  0.316276  0.00075039
0.274414  0.227106  2.41076  -0.354854  0.318095  0.000287054
0.276367  0.235991  2.42289  -0.365634  0.319848  -0.000179228
0.27832  0.245394  2.43523  -0.376843  0.321534  -0.000648424
0.280273  0.255343  2.44775  -0.388483  0.323147  -0.0011205
0.282227  0.265863  2.46043  -0.400554  0.324685  -0.00159541
0.28418  0.276984  2.47323  -0.413055  0.326144  -0.00207312
0.286133  0.288733  2.48613  -0.425985  0.32752  -0.00255358
0.288086  0.301138  2.49911  -0.439343  0.32881  -0.00303676
0.290039  0.314229  2.51213  -0.453125  0.33001  -0.0035226
0.291992  0.328035  2.52517  -0.467329  0.331116  -0.00401106
0.293945  0.342583  2.5382  -0.481951  0.332125  -0.00450208
0.295898  0.357904  2.55121  -0.496985  0.333031  -0.0049956
0.297852  0.374024  2.56418  -0.512426  0.333832  -0.00549157
0.299805  0.390973  2.57709  -0.528268  0.334523  -0.00598993
0.301758  0.408776  2.58991  -0.544504  0.335099  -0.00649061
0.303711  0.427462  2.60264  -0.561127  0.335557  -0.00699354
0.305664  0.447053  2.61526  -0.578126  0.335892  -0.00749866
0.307617  0.467576  2.62776  -0.595495  0.336099  -0.00800588
0.30957  0.489054  2.64012  -0.613221  0.336175  -0.00851513
0.311523  0.511506  2.65235  -0.631295  0.336113  -0.00902633
0.313477  0.534954  2.66442  -0.649706  0.335911  -0.00953939
0.31543  0.559415  2.67634  -0.66844  0.335563  -0.0100542
0.317383  0.584905  2.6881  -0.687486  0.335064  -0.0105707
0.319336  0.611439  2.69969  -0.70683  0.33441  -0.0110888
0.321289  0.639027  2.71111  -0.726458  0.333595  -0.0116084
0.323242  0.667679  2.72236  -0.746355  0.332616  -0.0121293
0.325195  0.697401  2.73344  -0.766506  0.331467  -0.0126515
0.327148  0.728198  2.74434  -0.786894  0.330144  -0.0131749
0.329102  0.76007  2.75508  -0.807505  0.328641  -0.0136993
0.331055  0.793016  2.76565  -0.828321  0.326955  -0.0142246
0.333008  0.82703  2.77604  -0.849325  0.32508  -0.0147507
0.334961  0.862106  2.78628  -0.870499  0.323012  -0.0152775
0.336914  0.898231  2.79635  -0.891825  0.320747  -0.0158048
0.338867  0.935393  2.80626  -0.913286  0.318279  -0.0163324
0.34082  0.973573  2.81601  -0.934861  0.315606  -0.0168603
0.342773  1.01275  2.82561  -0.956534  0.312723  -0.0173883
0.344727  1.05291  2.83507  -0.978283  0.309625  -0.0179163
0.34668  1.09401  2.84438  -1.00009  0.30631  -0.0184441
0.348633  1.13603  2.85356  -1.02194  0.302773  -0.0189715
0.350586  1.17894  2.8626  -1.04381  0.299012  -0.0194983
0.352539  1.2227  2.87151  -1.06567  0.295024  -0.0200245
0.354492  1.26727  2.8803  -1.08752  0.290805  -0.0205498
0.356445  1.31262  2.88898  -1.10933  0.286353  -0.0210742
0.358398  1.35869  2.89753  -1.13109  0.281667  -0.0215973
0.360352  1.40545  2.90598  -1.15276  0.276744  -0.022119
0.362305  1.45284  2.91432  -1.17434  0.271583  -0.0226392
0.364258  1.50082  2.92257  -1.19581  0.266183  -0.0231577
0.366211  1.54934  2.93071  -1.21715  0.260544  -0.0236742
0.368164  1.59833  2.93877  -1.23834  0.254664  -0.0241887
0.370117  1.64776  2.94674  -1.25936  0.248545  -0.0247009
0.37207  1.69756  2.95462  -1.2802  0.242187  -0.0252106
0.374023  1.74767  2.96243  -1.30083  0.235591  -0.0257176
0.375977  1.79804  2.97015  -1.32125  0.228759  -0.0262218
0.37793  1.84861  2.97781  -1.34144  0.221693  -0.0267229
0.379883  1.89933  2.98539  -1.36138  0.214397  -0.0272208
0.381836  1.95013  2.99291  -1.38106  0.206872  -0.0277153
0.383789  2.00095  3.00035  -1.40047  0.199124  -0.0282061
0.385742  2.05175  3.00774  -1.41958  0.191157  -0.0286931
0.387695  2.10246  3.01506  -1.4384  0.182975  -0.0291761
0.389648  2.15304  3.02233  -1.4569  0.174584  -0.0296549
0.391602  2.20341  3.02953  -1.47508  0.165991  -0.0301293
0.393555  2.25353  3.03668  -1.49292  0.157202  -0.0305991
0.395508  2.30335  3.04377  -1.51043  0.148225  -0.0310641
0.397461  2.35282  3.05081  -1.52757  0.139067  -0.0315242
0.399414  2.40189  3.05778  -1.54436  0.129737  -0.031979
0.401367  2.4505  3.0647  -1.56078  0.120245  -0.0324286
0.40332  2.49862  3.07157  -1.57683  0.1106  -0.0328725
0.405273  2.5462  3.07837  -1.59249  0.100813  -0.0333108
0.407227  2.5932  3.08512  -1.60777  0.0908938  -0.0337432
0.40918  2.63958  3.09181  -1.62266  0.0808545  -0.0341695
0.411133  2.6853  3.09843  -1.63716  0.0707069  -0.0345895
0.413086  2.73032  3.10499  -1.65126  0.0604634  -0.0350031
0.415039  2.77462  3.11149  -1.66496  0.0501371  -0.0354101
0.416992  2.81816  3.11792  -1.67827  0.0397412  -0.0358104
0.418945  2.86091  3.12428  -1.69117  0.0292895  -0.0362037
0.420898  2.90285  3.13056  -1.70367  0.0187964  -0.0365899
0.422852  2.94394  3.13677  -1.71577  0.00827631  -0.0369688
0.424805  2.98417  -3.14029  -1.72747  -0.00225577  -0.0373403
0.426758  3.02352  -3.13424  -1.73878  -0.0127846  -0.0377043
0.428711  3.06196  -3.12828  -1.74969  -0.0232948  -0.0380605
0.430664  3.09948  -3.12241  -1.76021  -0.0337705  -0.0384089
0.432617  3.13606  -3.11663  -1.77034  -0.0441959  -0.0387492
0.43457  3.17169  -3.11095  -1.78009  -0.0545548  -0.0390815
0.436523  3.20635  -3.10538  -1.78945  -0.0648311  -0.0394054
0.438477  3.24003  -3.09991  -1.79844  -0.0750085  -0.0397209
0.44043  3.27272  -3.09455  -1.80706  -0.0850708  -0.0400279
0.442383  3.30441  -3.08931  -1.81532  -0.0950016  -0.0403262
0.444336  3.33509  -3.08418  -1.82322  -0.104785  -0.0406157
0.446289  3.36476  -3.07918  -1.83076  -0.114404  -0.0408963
0.448242  3.39341  -3.07431  -1.83795  -0.123843  -0.0411679
0.450195  3.42103  -3.06958  -1.84481  -0.133087  -0.0414304
0.452148  3.44761  -3.06498  -1.85133  -0.142119  -0.0416836
0.454102  3.47315  -3.06052  -1.85752  -0.150925  -0.0419275
0.456055  3.49766  -3.05621  -1.86339  -0.159489  -0.042162
0.458008  3.52112  -3.05205  -1.86895  -0.167797  -0.0423869
0.459961  3.54352  -3.04805  -1.8742  -0.175833  -0.0426023
0.461914  3.56488  -3.04421  -1.87914  -0.183585  -0.0428079
0.463867  3.58518  -3.04053  -1.8838  -0.191039  -0.0430038
0.46582  3.60443  -3.03702  -1.88816  -0.198181  -0.0431898
0.467773  3.62262  -3.03368  -1.89224  -0.204999  -0.0433659
0.469727  3.63974  -3.03051  -1.89605  -0.211482  -0.0435319
0.47168  3.6558  -3.02753  -1.89959  -0.217617  -0.0436879
0.473633  3.6708  -3.02473  -1.90287  -0.223394  -0.0438338
0.475586  3.68474  -3.02211  -1.90588  -0.228802  -0.0439695
0.477539  3.6976  -3.01969  -1.90865  -0.233833  -0.044095
0.479492  3.7094  -3.01745  -1.91116  -0.238476  -0.0442102
0.481445  3.72013  -3.01541  -1.91343  -0.242724  -0.044315
0.483398  3.72979  -3.01357  -1.91546  -0.246569  -0.0444095
0.485352  3.73838  -3.01193  -1.91726  -0.250005  -0.0444936
0.487305  3.7459  -3.01048  -1.91882  -0.253025  -0.0445672
0.489258  3.75234  -3.00924  -1.92016  -0.255623  -0.0446304
0.491211  3.75772  -3.00821  -1.92126  -0.257795  -0.0446831
0.493164  3.76201  -3.00738  -1.92215  -0.259538  -0.0447253
0.495117  3.76524  -3.00676  -1.92281  -0.260848  -0.0447569
0.49707  3.76739  -3.00634  -1.92325  -0.261722  -0.044778
0.499023  3.76846  -3.00613  -1.92347  -0.26216  -0.0447886
0.500977  3.76846  -3.00613  -1.92347  -0.26216  -0.0447886
0.50293  3.76739  -3.00634  -1.92325  -0.261722  -0.044778
0.504883  3.76524  -3.00676  -1.92281  -0.260848  -0.0447569
0.506836  3.76201  -3.00738  -1.92215  -0.259538  -0.0447253
0.508789  3.75772  -3.00821  -1.92126  -0.257795  -0.0446831
0.510742  3.75234  -3.00924  -1.92016  -0.255623  -0.0446304
0.512695  3.7459  -3.01048  -1.91882  -0.253025  -0.0445672
0.514648  3.73838  -3.01193  -1.91726  -0.250005  -0.0444936
0.516602  3.72979  -3.01357  -1.91546  -0.246569  -0.0444095
0.518555  3.72013  -3.01541  -1.91343  -0.242724  -0.044315
0.520508  3.7094  -3.01745  -1.91116  -0.238476  -0.0442102
0.522461  3.6976  -3.01969  -1.90865  -0.233833  -0.044095
0.524414  3.68474  -3.02211  -1.90588  -0.228802  -0.0439695
0.526367  3.6708  -3.02473  -1.90287  -0.223394  -0.0438338
0.52832  3.6558  -3.02753  -1.89959  -0.217617  -0.0436879
0.530273  3.63974  -3.03051  -1.89605  -0.211482  -0.0435319
0.532227  3.62262  -3.03368  -1.89224  -0.204999  -0.0433659
0.53418  3.60443  -3.03702  -1.88816  -0.198181  -0.0431898
0.536133  3.58518  -3.04053  -1.8838  -0.191039  -0.0430038
0.538086  3.56488  -3.04421  -1.87914  -0.183585  -0.0428079
0.540039  3.54352  -3.04805  -1.8742  -0.175833  -0.0426023
0.541992  3.52112  -3.05205  -1.86895  -0.167797  -0.0423869
0.543945  3.49766  -3.05621  -1.86339  -0.159489  -0.042162
0.545898  3.47315  -3.06052  -1.85752  -0.150925  -0.0419275
0.547852  3.44761  -3.06498  -1.85133  -0.142119  -0.0416836
0.549805  3.42103  -3.06958  -1.84481  -0.133087  -0.0414304
0.551758  3.39341  -3.07431  -1.83795  -0.123843  -0.0411679
0.553711  3.36476  -3.07918  -1.83076  -0.114404  -0.0408963
0.555664  3.33509  -3.08418  -1.82322  -0.104785  -0.0406157
0.557617  3.30441  -3.08931  -1.81532  -0.0950016  -0.0403262
0.55957  3.27272  -3.09455  -1.80706  -0.0850708  -0.0400279
0.561523  3.24003  -3.09991  -1.79844  -0.0750085  -0.0397209
0.563477  3.20635  -3.10538  -1.78945  -0.0648311  -0.0394054
0.56543  3.17169  -3.11095  -1.78009  -0.0545548  -0.0390815
0.567383  3.13606  -3.11663  -1.77034  -0.0441959  -0.0387492
0.569336  3.09948  -3.12241  -1.76021  -0.0337705  -0.0384089
0.571289  3.06196  -3.12828  -1.74969  -0.0232948  -0.0380605
0.573242  3.02352  -3.13424  -1.73878  -0.0127846  -0.0377043
0.575195  2.98417  -3.14029  -1.72747  -0.00225577  -0.0373403
0.577148  2.94394  3.13677  -1.71577  0.00827631  -0.0369688
0.579102  2.90285  3.13056  -1.70367  0.0187964  -0.0365899
0.581055  2.86091  3.12428  -1.69117  0.0292895  -0.0362037
0.583008  2.81816  3.11792  -1.67827  0.0397412  -0.0358104
0.584961  2.77462  3.11149  -1.66496  0.0501371  -0.0354101
0.586914  2.73032  3.10499  -1.65126  0.0604634  -0.0350031
0.588867  2.6853  3.09843  -1.63716  0.0707069  -0.0345895
0.59082  2.63958  3.09181  -1.62266  0.0808545  -0.0341695
0.592773  2.5932  3.08512  -1.60777  0.0908938  -0.0337432
0.594727  2.5462  3.07837  -1.59249  0.100813  -0.0333108
0.59668  2.49862  3.07157  -1.57683  0.1106  -0.0328725
0.598633  2.4505  3.0647  -1.56078  0.120245  -0.0324286
0.600586  2.40189  3.05778  -1.54436  0.129737  -0.031979
0.602539  2.35282  3.05081  -1.52757  0.139067  -0.0315242
0.604492  2.30335  3.04377  -1.51043  0.148225  -0.0310641
0.606445  2.25353  3.03668  -1.49292  0.157202  -0.0305991
0.608398  2.20341  3.02953  -1.47508  0.165991  -0.0301293
0.610352  2.15304  3.02233  -1.4569  0.174584  -0.0296549
0.612305  2.10246  3.01506  -1.4384  0.182975  -0.0291761
0.614258  2.05175  3.00774  -1.41958  0.191157  -0.0286931
0.616211  2.00095  3.00035  -1.40047  0.199124  -0.0282061
0.618164  1.95013  2.99291  -1.38106  0.206872  -0.0277153
0.620117  1.89933  2.98539  -1.36138  0.214397  -0.0272208
0.62207  1.84861  2.97781  -1.34144  0.221693  -0.0267229
0.624023  1.79804  2.97015  -1.32125  0.228759  -0.0262218
0.625977  1.74767  2.96243  -1.30083  0.235591  -0.0257176
0.62793  1.69756  2.95462  -1.2802  0.242187  -0.0252106
0.629883  1.64776  2.94674  -1.25936  0.248545  -0.0247009
0.631836  1.59833  2.93877  -1.23834  0.254664  -0.0241887
0.633789  1.54934  2.93071  -1.21715  0.260544  -0.0236742
0.635742  1.50082  2.92257  -1.19581  0.266183  -0.0231577
0.637695  1.45284  2.91432  -1.17434  0.271583  -0.0226392
0.639648  1.40545  2.90598  -1.15276  0.276744  -0.022119
0.641602  1.35869  2.89753  -1.13109  0.281667  -0.0215973
0.643555  1.31262  2.88898  -1.10933  0.286353  -0.0210742
0.645508  1.26727  2.8803  -1.08752  0.290805  -0.0205498
